Nb
as received
Sample dimentions in mm: 0.7000 x 0.000 x 14.18
Photocell sensitivity 0.056 V/mm, Optic arm 328 mm
User: Iva
F 12 10.000 0.001 400 0 20 20 3.0E-1
22.11.2013, 10:44

T[K]   F[Hz]  Theta[rad]   Modulus  MaxStrain Center[mm] Time[s] TOven[K]
386.55 10.000000 3.295245E-2 0.646860  1.044E-4 8.44433 30 400.00
386.56 8.912656 2.958452E-2 0.652840  1.040E-4 8.44556 64 400.00
386.56 7.944074 2.646205E-2 0.657527  1.036E-4 8.44352 98 400.00
386.57 7.080147 2.371206E-2 0.661249  1.030E-4 8.44557 132 400.00
386.57 6.309944 2.124541E-2 0.664190  1.026E-4 8.44560 166 400.00
386.56 5.624297 1.908304E-2 0.666492  1.023E-4 8.44031 200 400.00
386.56 5.012029 1.711214E-2 0.668356  1.021E-4 8.44487 234 400.00
386.54 4.467477 1.539458E-2 0.669815  1.019E-4 8.44550 268 400.00
386.55 3.981526 1.387436E-2 0.670949  1.019E-4 8.44422 302 400.00
386.55 3.548616 1.251626E-2 0.671851  1.017E-4 8.44334 336 400.00
386.55 3.162555 1.128978E-2 0.672537  1.016E-4 8.44475 370 400.00
386.56 2.818489 1.024110E-2 0.673160  1.018E-4 8.43768 405 400.00
386.56 2.512058 9.291751E-3 0.673585  1.016E-4 8.43910 439 400.00
386.56 2.238739 8.493076E-3 0.673923  1.015E-4 8.44775 473 400.00
386.57 1.994613 7.759298E-3 0.674251  1.016E-4 8.43935 507 400.00
386.57 1.779451 7.149527E-3 0.674378  1.015E-4 8.44387 541 400.00
386.58 1.585329 6.636881E-3 0.674563  1.015E-4 8.43429 575 400.00
386.61 1.412851 6.210387E-3 0.675770  1.015E-4 8.43340 610 400.00
386.60 1.261057 5.699008E-3 0.674729  1.016E-4 8.45181 645 400.00
386.57 1.121970 5.381666E-3 0.674903  1.017E-4 8.43159 679 400.00
386.59 1.000576 5.226956E-3 0.674972  1.017E-4 8.44309 714 400.00
386.63 0.892327 5.040263E-3 0.674819  1.015E-4 8.43257 748 400.00
386.63 0.794729 4.903775E-3 0.674940  1.016E-4 8.43596 782 400.00
386.62 0.706425 4.817442E-3 0.676220  1.016E-4 8.43705 817 400.00
386.62 0.630528 4.681126E-3 0.674910  1.012E-4 8.45310 852 400.00
386.63 0.563055 4.500228E-3 0.674648  1.017E-4 8.46977 887 400.00
386.63 0.501934 4.636923E-3 0.674912  1.017E-4 8.44395 923 400.00
386.56 0.446163 4.641951E-3 0.674847  1.018E-4 8.44920 957 400.00
386.57 0.398402 4.968107E-3 0.674658  1.015E-4 8.43991 991 400.00
386.57 0.354856 5.186472E-3 0.674572  1.016E-4 8.45088 1028 400.00
386.57 0.316572 5.306716E-3 0.674341  1.017E-4 8.38833 1064 400.00
386.56 0.281527 5.350530E-3 0.674367  1.015E-4 8.39858 1100 400.00
386.57 0.250967 5.843863E-3 0.674187  1.020E-4 8.44441 1138 400.00
386.60 0.223736 6.343398E-3 0.674198  1.017E-4 8.41445 1174 400.00
386.61 0.199722 6.523842E-3 0.673837  1.015E-4 8.43884 1208 400.00
386.61 0.177841 6.954631E-3 0.673844  1.017E-4 8.41197 1244 400.00
386.59 0.158615 7.748605E-3 0.673616  1.017E-4 8.49987 1284 400.00
386.59 0.141285 8.312170E-3 0.674267  1.023E-4 8.51552 1319 400.00
386.58 0.125898 9.186771E-3 0.673263  1.018E-4 8.44913 1357 400.00
386.59 0.112197 9.659136E-3 0.672557  1.022E-4 8.30974 1398 400.00
386.59 0.099992 1.004650E-2 0.672316  1.020E-4 8.44024 1431 400.00
386.60 0.089128 1.079779E-2 0.672039  1.019E-4 8.44154 1468 400.00
386.62 0.079473 1.156805E-2 0.671480  1.022E-4 8.44276 1507 400.00
386.62 0.070774 1.214843E-2 0.671696  1.022E-4 8.44147 1549 400.00
386.59 0.063105 1.297256E-2 0.670464  1.024E-4 8.44255 1595 400.00
386.60 0.056223 1.418623E-2 0.669925  1.024E-4 8.44051 1644 400.00
386.57 0.050127 1.512887E-2 0.669129  1.025E-4 8.43965 1698 400.00
386.56 0.044669 1.612713E-2 0.668351  1.026E-4 8.43925 1757 399.95
386.58 0.039819 1.712871E-2 0.667330  1.029E-4 8.44016 1822 400.00
386.59 0.035486 1.789788E-2 0.666289  1.029E-4 8.43877 1892 400.00
386.60 0.031618 1.873490E-2 0.665164  1.029E-4 8.43895 1969 400.00
386.60 0.028184 1.922856E-2 0.663851  1.031E-4 8.43871 2054 400.00
386.61 0.025121 1.952276E-2 0.662553  1.034E-4 8.43994 2148 400.00
386.61 0.022387 1.940307E-2 0.661169  1.036E-4 8.43942 2251 400.00
386.60 0.019951 1.961863E-2 0.659889  1.037E-4 8.43930 2366 400.00
386.61 0.017784 1.940691E-2 0.658720  1.040E-4 8.44018 2492 400.00
386.61 0.015848 1.920025E-2 0.657697  1.041E-4 8.44080 2633 400.00
386.62 0.014126 1.875474E-2 0.656734  1.043E-4 8.43998 2788 400.00
386.62 0.012590 1.838617E-2 0.655574  1.044E-4 8.44062 2961 400.00
386.62 0.011220 1.739926E-2 0.653678  1.046E-4 8.44071 3153 400.00
386.63 0.010001 1.742768E-2 0.653604  1.048E-4 8.44101 3367 400.00
386.63 0.008913 1.665132E-2 0.652813  1.050E-4 8.44094 3606 400.00
386.62 0.007943 1.645110E-2 0.652267  1.050E-4 8.44067 3872 400.00
386.62 0.007079 1.534150E-2 0.651557  1.051E-4 8.43938 4168 400.00
386.65 0.006309 1.522366E-2 0.651325  1.052E-4 8.43845 4499 400.00
386.68 0.005623 1.371277E-2 0.650923  1.052E-4 8.43747 4869 400.00
386.67 0.005012 1.366336E-2 0.649284  1.055E-4 8.44006 5282 400.00
386.64 0.004467 1.265005E-2 0.649221  1.055E-4 8.43824 5743 400.00
386.54 0.003981 1.239575E-2 0.648026  1.058E-4 8.44076 6260 400.00
386.51 0.003548 1.186275E-2 0.647347  1.058E-4 8.44138 6838 400.00
386.55 0.003162 1.380982E-2 0.647623  1.059E-4 8.44123 7484 400.00
386.61 0.002818 1.069479E-2 0.646407  1.060E-4 8.44151 8208 400.00
386.65 0.002512 1.012704E-2 0.646019  1.060E-4 8.44182 9018 400.00
386.63 0.002239 9.494499E-3 0.645370  1.061E-4 8.44268 9925 400.00
386.60 0.001995 8.980521E-3 0.644927  1.062E-4 8.44332 10942 400.00
386.63 0.001778 8.612643E-3 0.644681  1.062E-4 8.44352 12081 400.00
386.67 0.001585 7.891553E-3 0.644372  1.062E-4 8.44457 13357 400.00
386.64 0.001413 7.582243E-3 0.644123  1.063E-4 8.44441 14788 400.00
386.64 0.001259 7.235664E-3 0.643568  1.063E-4 8.44587 16392 400.00
386.68 0.001122 6.874990E-3 0.643111  1.063E-4 8.44644 18189 400.00
386.66 0.001000 6.601083E-3 0.643071  1.064E-4 8.44704 20203 400.00
