Nb
as received
Sample dimentions in mm: 0.7000 x 0.000 x 14.18
Photocell sensitivity 0.056 V/mm, Optic arm 328 mm
User: Iva
F 20 10.000 0.001 440 0 20 20 3.0E-1
23.11.2013, 17:32

T[K]   F[Hz]  Theta[rad]   Modulus  MaxStrain Center[mm] Time[s] TOven[K]
426.58 10.000000 3.418591E-2 0.639114  1.050E-4 8.30650 30 440.00
426.57 8.912656 3.101015E-2 0.644977  1.044E-4 8.30453 64 440.00
426.58 7.944074 2.832013E-2 0.649601  1.038E-4 8.30501 98 440.00
426.59 7.080147 2.596654E-2 0.653244  1.035E-4 8.30261 132 440.00
426.58 6.309944 2.399988E-2 0.656104  1.033E-4 8.30514 166 440.00
426.57 5.624297 2.226661E-2 0.658346  1.030E-4 8.30814 200 440.00
426.56 5.012029 2.087315E-2 0.660054  1.028E-4 8.30927 234 440.00
426.55 4.467477 1.971573E-2 0.661418  1.027E-4 8.30194 268 440.00
426.53 3.981526 1.875210E-2 0.662421  1.026E-4 8.30432 302 440.00
426.53 3.548616 1.799557E-2 0.663147  1.026E-4 8.30600 336 440.00
426.52 3.162555 1.741882E-2 0.663646  1.025E-4 8.30321 370 440.00
426.52 2.818489 1.701192E-2 0.663966  1.025E-4 8.30416 404 440.00
426.50 2.512058 1.681234E-2 0.664081  1.024E-4 8.30750 439 440.00
426.50 2.238739 1.662995E-2 0.664086  1.025E-4 8.30726 473 440.00
426.50 1.994613 1.668876E-2 0.664012  1.026E-4 8.30269 507 440.00
426.50 1.779451 1.674711E-2 0.663674  1.025E-4 8.31333 541 440.00
426.50 1.585329 1.687761E-2 0.663370  1.027E-4 8.30366 575 440.00
426.49 1.412851 1.675501E-2 0.658879  1.028E-4 8.29982 610 440.00
426.48 1.261057 1.738746E-2 0.662362  1.028E-4 8.31046 644 440.00
426.48 1.121970 1.785975E-2 0.661564  1.028E-4 8.28889 679 440.00
426.48 1.000576 1.822377E-2 0.660930  1.031E-4 8.30595 714 440.00
426.49 0.892327 1.850419E-2 0.660037  1.032E-4 8.29318 748 440.00
426.50 0.794729 1.870307E-2 0.659148  1.033E-4 8.30082 781 440.00
426.50 0.706425 1.882348E-2 0.654985  1.033E-4 8.29799 817 440.00
426.50 0.630528 1.919495E-2 0.657028  1.036E-4 8.32490 851 440.00
426.51 0.563055 1.929328E-2 0.656057  1.038E-4 8.33237 887 440.00
426.53 0.501934 1.926813E-2 0.655120  1.040E-4 8.30781 923 440.00
426.53 0.446163 1.930403E-2 0.654009  1.042E-4 8.31463 957 440.00
426.53 0.398402 1.908585E-2 0.652772  1.043E-4 8.30283 991 440.00
426.52 0.354856 1.878255E-2 0.651598  1.045E-4 8.31478 1027 440.00
426.52 0.316572 1.858555E-2 0.650803  1.047E-4 8.24739 1063 440.00
426.51 0.281527 1.819963E-2 0.649558  1.049E-4 8.25890 1099 440.00
426.44 0.250967 1.755188E-2 0.648674  1.050E-4 8.30571 1137 440.00
426.47 0.223736 1.716041E-2 0.647719  1.053E-4 8.27020 1173 440.00
426.44 0.199722 1.674902E-2 0.646806  1.053E-4 8.30494 1207 440.00
426.46 0.177841 1.581420E-2 0.646087  1.054E-4 8.28354 1243 440.00
426.45 0.158615 1.507841E-2 0.645159  1.057E-4 8.36717 1283 440.00
426.44 0.141285 1.477537E-2 0.641413  1.058E-4 8.38261 1318 440.00
426.46 0.125898 1.358739E-2 0.643797  1.058E-4 8.30750 1356 439.95
426.43 0.112197 1.329439E-2 0.643232  1.060E-4 8.16789 1396 440.00
426.47 0.099992 1.249411E-2 0.642756  1.060E-4 8.30694 1430 440.00
426.41 0.089128 1.175050E-2 0.642152  1.062E-4 8.30551 1467 440.00
426.45 0.079473 1.088227E-2 0.641641  1.063E-4 8.30599 1506 440.00
426.48 0.070774 1.059239E-2 0.640965  1.063E-4 8.30590 1548 440.00
426.44 0.063105 9.752542E-3 0.640814  1.063E-4 8.30524 1594 440.00
426.44 0.056223 9.151564E-3 0.640444  1.064E-4 8.30510 1643 440.00
426.47 0.050127 9.027889E-3 0.640061  1.064E-4 8.30514 1697 440.00
426.46 0.044669 8.292066E-3 0.639746  1.065E-4 8.30490 1756 440.00
426.45 0.039819 7.842850E-3 0.639468  1.065E-4 8.30478 1820 440.00
426.44 0.035486 7.554870E-3 0.639234  1.066E-4 8.30478 1891 440.00
426.43 0.031618 7.048962E-3 0.639026  1.066E-4 8.30506 1968 440.00
426.41 0.028184 6.590846E-3 0.638652  1.066E-4 8.30564 2053 440.00
426.42 0.025121 6.080201E-3 0.638781  1.067E-4 8.30502 2147 440.00
426.43 0.022387 5.989145E-3 0.638433  1.067E-4 8.30518 2250 440.00
426.44 0.019951 5.441506E-3 0.638328  1.067E-4 8.30509 2365 440.00
426.46 0.017784 5.206123E-3 0.638050  1.067E-4 8.30489 2491 440.00
426.44 0.015848 4.808984E-3 0.637758  1.068E-4 8.30454 2631 440.00
426.39 0.014126 4.825101E-3 0.637706  1.069E-4 8.30510 2787 440.00
426.36 0.012590 4.296195E-3 0.637665  1.069E-4 8.30520 2960 440.00
426.39 0.011220 2.234910E-3 0.637666  1.069E-4 8.30522 3152 440.00
426.38 0.010001 3.989375E-3 0.637292  1.069E-4 8.30487 3366 440.00
426.41 0.008913 3.738805E-3 0.637187  1.069E-4 8.30521 3604 440.00
426.37 0.007943 3.326150E-3 0.637135  1.069E-4 8.30481 3870 440.00
426.38 0.007079 3.382194E-3 0.637025  1.069E-4 8.30512 4167 440.00
426.38 0.006309 2.912884E-3 0.636968  1.070E-4 8.30548 4498 440.00
426.37 0.005623 3.310456E-3 0.636895  1.070E-4 8.30558 4868 440.00
426.38 0.005012 2.596200E-3 0.636727  1.070E-4 8.30526 5281 440.00
426.41 0.004467 2.806965E-3 0.636748  1.070E-4 8.30541 5742 440.00
426.39 0.003981 2.874203E-3 0.636588  1.070E-4 8.30537 6259 440.00
426.36 0.003548 2.691712E-3 0.636500  1.070E-4 8.30543 6836 440.00
426.35 0.003162 2.982319E-3 0.636207  1.070E-4 8.30560 7483 440.00
426.35 0.002818 2.557813E-3 0.636427  1.070E-4 8.30568 8206 440.00
426.34 0.002512 2.417513E-3 0.636323  1.070E-4 8.30587 9017 440.00
426.36 0.002239 2.318061E-3 0.636361  1.070E-4 8.30568 9924 440.00
426.38 0.001995 1.483515E-3 0.636631  1.070E-4 8.30628 10941 440.00
426.36 0.001778 2.341500E-3 0.636159  1.070E-4 8.30624 12080 440.00
426.37 0.001585 2.364901E-3 0.635773  1.070E-4 8.30658 13356 440.00
426.36 0.001413 2.266161E-3 0.636222  1.070E-4 8.30685 14786 440.00
426.39 0.001259 2.131064E-3 0.636486  1.070E-4 8.30681 16390 440.00
426.40 0.001122 1.701902E-3 0.635931  1.070E-4 8.30692 18187 440.00
426.40 0.001000 2.188816E-3 0.635875  1.070E-4 8.30662 20201 440.00
