Nb
as received
Sample dimentions in mm: 0.7000 x 0.000 x 14.18
Photocell sensitivity 0.056 V/mm, Optic arm 328 mm
User: Iva
F 16 10.000 0.001 420 0 20 20 3.0E-1
23.11.2013, 02:08

T[K]   F[Hz]  Theta[rad]   Modulus  MaxStrain Center[mm] Time[s] TOven[K]
406.20 10.000000 3.215555E-2 0.642562  1.048E-4 8.37703 30 420.00
406.20 8.912656 2.890170E-2 0.648523  1.042E-4 8.37841 64 420.00
406.20 7.944074 2.599563E-2 0.653263  1.035E-4 8.37658 98 420.00
406.21 7.080147 2.345268E-2 0.656988  1.036E-4 8.37823 132 420.00
406.21 6.309944 2.120400E-2 0.659937  1.028E-4 8.37784 166 420.00
406.21 5.624297 1.920612E-2 0.662261  1.028E-4 8.37721 200 420.00
406.21 5.012029 1.743338E-2 0.664107  1.028E-4 8.38221 234 420.00
406.21 4.467477 1.587315E-2 0.665546  1.024E-4 8.37662 268 420.00
406.22 3.981526 1.457370E-2 0.666662  1.023E-4 8.38060 302 420.00
406.21 3.548616 1.339246E-2 0.667577  1.023E-4 8.37817 336 420.00
406.21 3.162555 1.243028E-2 0.668251  1.020E-4 8.37604 370 420.00
406.21 2.818489 1.152869E-2 0.668808  1.021E-4 8.37162 404 420.00
406.22 2.512058 1.076048E-2 0.669210  1.020E-4 8.37627 439 420.00
406.21 2.238739 1.023918E-2 0.669465  1.019E-4 8.37957 473 420.00
406.21 1.994613 9.758981E-3 0.669782  1.019E-4 8.37379 507 420.00
406.24 1.779451 9.490680E-3 0.669862  1.021E-4 8.38254 541 420.00
406.21 1.585329 9.136934E-3 0.669984  1.018E-4 8.37062 575 420.00
406.20 1.412851 8.523899E-3 0.665877  1.020E-4 8.36830 610 420.00
406.20 1.261057 8.854575E-3 0.670037  1.018E-4 8.38221 644 420.00
406.21 1.121970 8.931954E-3 0.669959  1.020E-4 8.35997 679 420.00
406.21 1.000576 8.943510E-3 0.669969  1.018E-4 8.37677 714 420.00
406.21 0.892327 9.246103E-3 0.669858  1.020E-4 8.36484 748 420.00
406.20 0.794729 9.460086E-3 0.669680  1.024E-4 8.36865 782 420.00
406.21 0.706425 1.000879E-2 0.667609  1.022E-4 8.37288 817 420.00
406.21 0.630528 1.008735E-2 0.669236  1.018E-4 8.38606 852 420.00
406.22 0.563055 1.066941E-2 0.668885  1.021E-4 8.40306 887 420.00
406.21 0.501934 1.092235E-2 0.668618  1.023E-4 8.37635 923 420.00
406.20 0.446163 1.171801E-2 0.668035  1.023E-4 8.38490 957 420.00
406.21 0.398402 1.226179E-2 0.667634  1.024E-4 8.37348 991 420.00
406.21 0.354856 1.305557E-2 0.667063  1.027E-4 8.38203 1028 420.00
406.22 0.316572 1.368295E-2 0.666540  1.025E-4 8.31988 1064 420.00
406.21 0.281527 1.460524E-2 0.665775  1.026E-4 8.33713 1100 420.00
406.24 0.250967 1.505191E-2 0.665266  1.028E-4 8.37550 1138 420.00
406.21 0.223736 1.579922E-2 0.664180  1.031E-4 8.34668 1174 420.00
406.24 0.199722 1.633180E-2 0.663356  1.032E-4 8.37435 1208 420.00
406.23 0.177841 1.686818E-2 0.662434  1.032E-4 8.34996 1244 420.00
406.21 0.158615 1.747514E-2 0.661440  1.033E-4 8.43581 1284 420.00
406.21 0.141285 1.805080E-2 0.660942  1.036E-4 8.45126 1319 420.00
406.23 0.125898 1.841722E-2 0.659388  1.036E-4 8.38186 1357 420.00
406.23 0.112197 1.849995E-2 0.658155  1.039E-4 8.24163 1398 420.00
406.27 0.099992 1.860525E-2 0.656807  1.039E-4 8.37557 1431 420.00
406.26 0.089128 1.857838E-2 0.655924  1.040E-4 8.37550 1468 420.00
406.26 0.079473 1.832431E-2 0.654832  1.043E-4 8.37670 1507 420.00
406.25 0.070774 1.841339E-2 0.654862  1.044E-4 8.37606 1549 420.00
406.26 0.063105 1.807441E-2 0.652658  1.047E-4 8.37640 1595 420.00
406.26 0.056223 1.766824E-2 0.651721  1.048E-4 8.37567 1644 420.00
406.26 0.050127 1.736101E-2 0.650633  1.051E-4 8.37629 1698 420.00
406.25 0.044669 1.681655E-2 0.649596  1.052E-4 8.37460 1757 420.00
406.24 0.039819 1.650481E-2 0.648876  1.053E-4 8.37452 1821 420.00
406.23 0.035486 1.601196E-2 0.647877  1.055E-4 8.37467 1892 420.05
406.21 0.031618 1.545464E-2 0.647005  1.057E-4 8.37470 1969 420.05
406.18 0.028184 1.453157E-2 0.646257  1.057E-4 8.37510 2054 420.00
406.14 0.025121 1.396019E-2 0.645594  1.058E-4 8.37516 2148 420.00
406.09 0.022387 1.336120E-2 0.644831  1.059E-4 8.37492 2251 420.00
406.04 0.019951 1.269368E-2 0.644334  1.061E-4 8.37514 2366 419.95
406.02 0.017784 1.200363E-2 0.643887  1.061E-4 8.37513 2492 419.90
406.00 0.015848 1.136573E-2 0.643554  1.062E-4 8.37560 2632 419.95
405.99 0.014126 1.054059E-2 0.643059  1.063E-4 8.37516 2788 420.00
405.99 0.012590 1.012182E-2 0.642557  1.063E-4 8.37547 2961 420.00
406.02 0.011220 1.149735E-2 0.642014  1.064E-4 8.37542 3153 420.00
406.06 0.010001 8.961792E-3 0.641918  1.065E-4 8.37538 3367 419.95
406.07 0.008913 8.539215E-3 0.641629  1.065E-4 8.37540 3606 420.00
406.07 0.007943 8.295710E-3 0.641311  1.065E-4 8.37577 3872 420.00
406.09 0.007079 7.477487E-3 0.640908  1.066E-4 8.37603 4168 420.00
406.11 0.006309 6.970715E-3 0.640582  1.067E-4 8.37613 4499 420.00
406.13 0.005623 6.429985E-3 0.640601  1.067E-4 8.37602 4869 420.00
406.14 0.005012 5.660025E-3 0.641822  1.068E-4 8.37605 5282 420.00
406.15 0.004467 5.831178E-3 0.640095  1.068E-4 8.37631 5743 420.00
406.05 0.003981 5.274043E-3 0.640029  1.068E-4 8.37625 6260 420.00
406.03 0.003548 6.610201E-3 0.638304  1.068E-4 8.37643 6838 420.00
406.05 0.003162 6.097261E-3 0.638929  1.068E-4 8.37636 7484 420.00
406.02 0.002818 4.533148E-3 0.639476  1.068E-4 8.37672 8208 420.00
405.96 0.002512 4.577986E-3 0.639624  1.068E-4 8.37691 9018 420.00
405.94 0.002239 4.151290E-3 0.639323  1.068E-4 8.37741 9925 420.00
405.92 0.001995 3.628268E-3 0.638183  1.068E-4 8.37762 10942 420.00
405.89 0.001778 4.519582E-3 0.639248  1.068E-4 8.37778 12081 420.00
405.90 0.001585 3.731858E-3 0.639070  1.068E-4 8.37811 13357 420.00
405.90 0.001413 3.757231E-3 0.638986  1.068E-4 8.37846 14787 420.00
405.86 0.001259 3.438649E-3 0.638903  1.069E-4 8.37865 16392 420.00
405.86 0.001122 1.991591E-3 0.639282  1.069E-4 8.37884 18189 420.00
405.89 0.001000 2.695253E-3 0.638783  1.069E-4 8.37892 20203 420.00
