Nb
as received
Sample dimentions in mm: 0.7000 x 0.000 x 14.18
Photocell sensitivity 0.056 V/mm, Optic arm 328 mm
User: Iva
F 18 10.000 0.001 430 0 20 20 3.0E-1
23.11.2013, 09:50

T[K]   F[Hz]  Theta[rad]   Modulus  MaxStrain Center[mm] Time[s] TOven[K]
416.33 10.000000 3.285975E-2 0.641294  1.049E-4 8.34046 30 430.00
416.34 8.912656 2.961071E-2 0.647198  1.043E-4 8.34001 64 430.00
416.35 7.944074 2.679257E-2 0.651877  1.037E-4 8.34079 98 430.00
416.35 7.080147 2.433102E-2 0.655625  1.032E-4 8.33976 132 430.00
416.36 6.309944 2.217051E-2 0.658539  1.030E-4 8.33858 166 430.00
416.36 5.624297 2.030991E-2 0.660875  1.027E-4 8.34375 200 430.00
416.37 5.012029 1.868536E-2 0.662733  1.026E-4 8.34279 234 430.00
416.35 4.467477 1.729959E-2 0.664194  1.025E-4 8.33842 268 430.00
416.39 3.981526 1.605940E-2 0.665319  1.024E-4 8.34568 302 430.00
416.36 3.548616 1.506231E-2 0.666195  1.022E-4 8.34019 336 430.00
416.36 3.162555 1.424202E-2 0.666834  1.023E-4 8.33924 370 430.00
416.38 2.818489 1.354111E-2 0.667316  1.022E-4 8.33642 405 430.00
416.35 2.512058 1.305880E-2 0.667640  1.021E-4 8.34087 439 430.00
416.38 2.238739 1.266767E-2 0.667875  1.022E-4 8.34210 473 430.00
416.36 1.994613 1.244265E-2 0.668085  1.019E-4 8.33570 507 430.00
416.39 1.779451 1.229882E-2 0.667953  1.022E-4 8.34599 541 430.00
416.39 1.585329 1.224542E-2 0.667987  1.021E-4 8.33654 575 430.00
416.43 1.412851 1.202250E-2 0.670956  1.022E-4 8.33248 610 430.00
416.43 1.261057 1.247044E-2 0.667581  1.022E-4 8.34533 645 430.00
416.43 1.121970 1.287159E-2 0.667307  1.023E-4 8.32380 679 430.00
416.43 1.000576 1.322971E-2 0.667218  1.024E-4 8.34007 714 430.00
416.43 0.892327 1.366193E-2 0.666804  1.022E-4 8.32828 748 430.00
416.44 0.794729 1.424896E-2 0.666217  1.024E-4 8.33123 782 430.00
416.44 0.706425 1.475548E-2 0.668761  1.026E-4 8.33587 817 430.00
416.45 0.630528 1.519835E-2 0.664884  1.027E-4 8.34852 852 430.00
416.44 0.563055 1.580500E-2 0.664129  1.026E-4 8.36705 887 430.00
416.45 0.501934 1.635290E-2 0.663407  1.029E-4 8.34095 923 430.00
416.45 0.446163 1.704265E-2 0.662705  1.029E-4 8.34792 957 430.00
416.45 0.398402 1.752651E-2 0.661716  1.033E-4 8.33660 991 430.00
416.45 0.354856 1.784877E-2 0.660536  1.034E-4 8.34637 1028 430.00
416.46 0.316572 1.814320E-2 0.659733  1.036E-4 8.28257 1064 430.00
416.47 0.281527 1.845255E-2 0.658525  1.036E-4 8.29180 1099 430.00
416.47 0.250967 1.865654E-2 0.657590  1.037E-4 8.33879 1138 430.00
416.47 0.223736 1.851971E-2 0.656343  1.039E-4 8.30582 1174 430.00
416.47 0.199722 1.872200E-2 0.655253  1.043E-4 8.33983 1208 430.00
416.47 0.177841 1.854227E-2 0.654167  1.044E-4 8.31486 1244 430.00
416.48 0.158615 1.824733E-2 0.652968  1.046E-4 8.39689 1283 430.00
416.47 0.141285 1.793343E-2 0.653325  1.045E-4 8.41508 1319 430.00
416.47 0.125898 1.791055E-2 0.651046  1.050E-4 8.34216 1357 430.00
416.47 0.112197 1.743046E-2 0.649833  1.050E-4 8.20231 1397 430.00
416.46 0.099992 1.667893E-2 0.649174  1.050E-4 8.33889 1431 430.00
416.46 0.089128 1.619268E-2 0.648240  1.052E-4 8.33885 1467 430.00
416.46 0.079473 1.553642E-2 0.647300  1.053E-4 8.33960 1507 430.00
416.47 0.070774 1.446314E-2 0.647426  1.056E-4 8.33726 1549 430.00
416.47 0.063105 1.421848E-2 0.645905  1.058E-4 8.33883 1595 430.00
416.47 0.056223 1.348214E-2 0.645297  1.057E-4 8.33862 1644 430.00
416.45 0.050127 1.288704E-2 0.644630  1.060E-4 8.33829 1698 430.00
416.48 0.044669 1.210271E-2 0.643989  1.062E-4 8.33885 1757 430.00
416.48 0.039819 1.190888E-2 0.643668  1.062E-4 8.33933 1821 430.00
416.47 0.035486 1.115247E-2 0.643007  1.061E-4 8.33711 1892 430.00
416.52 0.031618 1.074631E-2 0.642561  1.063E-4 8.33876 1969 430.00
416.52 0.028184 9.822122E-3 0.642157  1.063E-4 8.33872 2054 430.00
416.52 0.025121 9.080203E-3 0.641897  1.064E-4 8.33770 2148 430.00
416.52 0.022387 8.977832E-3 0.641520  1.063E-4 8.33864 2251 430.00
416.51 0.019951 8.448018E-3 0.641188  1.064E-4 8.33870 2365 430.00
416.51 0.017784 7.860142E-3 0.640857  1.065E-4 8.33811 2492 430.00
416.51 0.015848 7.156321E-3 0.640701  1.066E-4 8.33896 2632 430.00
416.49 0.014126 6.991362E-3 0.640584  1.065E-4 8.33791 2788 430.00
416.44 0.012590 6.391722E-3 0.640294  1.066E-4 8.33801 2961 430.00
416.35 0.011220 7.029024E-3 0.640146  1.066E-4 8.33866 3153 430.00
416.21 0.010001 5.633638E-3 0.639974  1.067E-4 8.33864 3367 429.95
416.16 0.008913 5.404856E-3 0.639829  1.067E-4 8.33829 3605 430.00
416.20 0.007943 5.060142E-3 0.639691  1.067E-4 8.33826 3871 430.00
416.26 0.007079 4.776784E-3 0.639670  1.067E-4 8.33827 4168 430.00
416.28 0.006309 4.890882E-3 0.639414  1.067E-4 8.33789 4499 430.00
416.33 0.005623 4.318786E-3 0.639589  1.067E-4 8.33734 4869 430.00
416.29 0.005012 5.502191E-3 0.639706  1.068E-4 8.33782 5282 430.00
416.15 0.004467 3.882479E-3 0.639565  1.067E-4 8.33717 5743 429.95
416.12 0.003981 3.911956E-3 0.639297  1.067E-4 8.33754 6260 430.00
416.11 0.003548 3.342619E-3 0.640798  1.065E-4 8.33313 6837 429.95
416.10 0.003162 1.975575E-3 0.640484  1.066E-4 8.33414 7484 430.00
416.17 0.002818 3.352852E-3 0.639711  1.066E-4 8.33579 8207 430.00
416.12 0.002512 2.853968E-3 0.639141  1.067E-4 8.33818 9018 430.00
416.10 0.002239 3.041213E-3 0.639171  1.066E-4 8.33682 9925 430.00
416.11 0.001995 3.259311E-3 0.639310  1.067E-4 8.33680 10942 430.00
416.10 0.001778 2.676165E-3 0.638403  1.068E-4 8.33880 12081 430.00
416.04 0.001585 2.744869E-3 0.638317  1.068E-4 8.34017 13357 430.00
415.98 0.001413 2.404986E-3 0.638461  1.068E-4 8.33953 14787 430.00
415.97 0.001259 1.797604E-3 0.638311  1.068E-4 8.34079 16391 430.00
415.92 0.001122 1.369357E-3 0.637685  1.069E-4 8.34163 18189 430.00
415.92 0.001000 1.724018E-3 0.637669  1.069E-4 8.34180 20203 430.00
