Nb
as received
Sample dimentions in mm: 0.7000 x 0.000 x 14.18
Photocell sensitivity 0.056 V/mm, Optic arm 328 mm
User: Iva
F 2 10.000 0.001 350 0 20 20 3.0E-1
20.11.2013, 20:14

T[K]   F[Hz]  Theta[rad]   Modulus  MaxStrain Center[mm] Time[s] TOven[K]
340.25 10.000000 3.226178E-2 0.652037  1.035E-4 8.48130 31 350.00
340.26 8.912656 2.881674E-2 0.657893  1.030E-4 8.48376 65 350.00
340.27 7.944074 2.573506E-2 0.662539  1.025E-4 8.48330 98 350.00
340.27 7.080147 2.298756E-2 0.666209  1.021E-4 8.48505 132 350.00
340.27 6.309944 2.055093E-2 0.669145  1.018E-4 8.48142 166 350.00
340.28 5.624297 1.837242E-2 0.671463  1.016E-4 8.47782 200 350.00
340.28 5.012029 1.643696E-2 0.673308  1.015E-4 8.48157 234 350.00
340.29 4.467477 1.470580E-2 0.674770  1.013E-4 8.48448 268 350.00
340.30 3.981526 1.317766E-2 0.675898  1.011E-4 8.48178 302 350.00
340.30 3.548616 1.181668E-2 0.676813  1.010E-4 8.48250 336 350.00
340.31 3.162555 1.058863E-2 0.677526  1.010E-4 8.48488 370 350.00
340.32 2.818489 9.484764E-3 0.678123  1.010E-4 8.47446 405 350.00
340.32 2.512058 8.545800E-3 0.678544  1.009E-4 8.47775 439 350.00
340.33 2.238739 7.641542E-3 0.678875  1.008E-4 8.48630 473 350.00
340.34 1.994613 6.880775E-3 0.679213  1.010E-4 8.47862 507 350.00
340.32 1.779451 6.169386E-3 0.679309  1.008E-4 8.48016 541 350.00
340.32 1.585329 5.559650E-3 0.679545  1.009E-4 8.47384 575 350.00
340.33 1.412851 4.991307E-3 0.679534  1.008E-4 8.47196 610 350.00
340.31 1.261057 4.530746E-3 0.679642  1.009E-4 8.49090 645 350.00
340.34 1.121970 4.104726E-3 0.679703  1.008E-4 8.47005 679 350.00
340.32 1.000576 3.780009E-3 0.679901  1.009E-4 8.48152 714 350.00
340.35 0.892327 3.410463E-3 0.679929  1.008E-4 8.47104 748 350.00
340.32 0.794729 3.069145E-3 0.679865  1.008E-4 8.47509 782 350.00
340.33 0.706425 2.767544E-3 0.679779  1.008E-4 8.47577 817 350.00
340.35 0.630528 2.704378E-3 0.679896  1.007E-4 8.49605 852 350.00
340.32 0.563055 2.337550E-3 0.679523  1.009E-4 8.50880 887 350.00
340.37 0.501934 2.207356E-3 0.680048  1.008E-4 8.48161 923 350.00
340.34 0.446163 2.018812E-3 0.679897  1.008E-4 8.48839 958 350.00
340.34 0.398402 1.778373E-3 0.679882  1.008E-4 8.48058 991 350.00
340.38 0.354856 1.827083E-3 0.679689  1.008E-4 8.48957 1028 350.00
340.35 0.316572 1.419904E-3 0.679883  1.009E-4 8.42746 1064 350.00
340.36 0.281527 1.589939E-3 0.679511  1.009E-4 8.43825 1100 350.00
340.37 0.250967 1.499941E-3 0.680032  1.009E-4 8.48170 1138 350.00
340.38 0.223736 1.612922E-3 0.679950  1.008E-4 8.45769 1174 350.00
340.38 0.199722 1.566179E-3 0.679833  1.009E-4 8.48074 1208 350.00
340.39 0.177841 1.478164E-3 0.679872  1.008E-4 8.44867 1244 350.00
340.40 0.158615 1.355555E-3 0.679890  1.008E-4 8.53927 1284 350.00
340.41 0.141285 1.239486E-3 0.679960  1.008E-4 8.55180 1319 350.00
340.40 0.125898 1.462493E-3 0.679928  1.009E-4 8.48074 1357 350.00
340.41 0.112197 1.202082E-3 0.679694  1.009E-4 8.34920 1398 350.00
340.41 0.099992 1.073428E-3 0.679664  1.009E-4 8.48115 1431 350.00
340.42 0.089128 1.374006E-3 0.679789  1.008E-4 8.48088 1468 350.00
340.41 0.079473 1.438587E-3 0.679755  1.009E-4 8.48162 1507 350.00
340.41 0.070774 1.273889E-3 0.679775  1.009E-4 8.48046 1549 350.00
340.43 0.063105 1.280438E-3 0.679716  1.009E-4 8.48074 1595 350.00
340.44 0.056223 1.396632E-3 0.679591  1.009E-4 8.48048 1645 350.00
340.44 0.050127 1.241739E-3 0.679764  1.009E-4 8.48006 1699 350.00
340.45 0.044669 1.452242E-3 0.679664  1.009E-4 8.47968 1757 350.00
340.44 0.039819 1.448091E-3 0.679395  1.009E-4 8.47870 1822 350.00
340.45 0.035486 1.938993E-3 0.679678  1.009E-4 8.47805 1892 350.00
340.45 0.031618 1.851815E-3 0.679558  1.010E-4 8.47823 1969 350.00
340.43 0.028184 1.250150E-3 0.678734  1.010E-4 8.47753 2055 350.00
340.43 0.025121 2.068418E-3 0.679438  1.009E-4 8.47723 2148 350.00
340.40 0.022387 4.879661E-3 0.678045  1.010E-4 8.47800 2252 350.00
340.41 0.019951 2.035148E-3 0.679211  1.010E-4 8.47814 2366 350.00
340.42 0.017784 2.156436E-3 0.679236  1.010E-4 8.47864 2492 350.00
340.43 0.015848 2.301792E-3 0.679279  1.010E-4 8.47916 2633 350.00
340.44 0.014126 2.170430E-3 0.679051  1.009E-4 8.47930 2788 350.00
340.39 0.012590 2.462321E-3 0.678264  1.011E-4 8.48097 2961 350.00
340.42 0.011220 2.476802E-3 0.679015  1.010E-4 8.48156 3153 350.00
340.44 0.010001 2.752361E-3 0.678793  1.010E-4 8.48205 3367 350.00
340.44 0.008913 2.834060E-3 0.678816  1.010E-4 8.48243 3606 350.00
340.44 0.007943 3.283231E-3 0.678629  1.011E-4 8.48321 3871 350.00
340.44 0.007079 3.180602E-3 0.678727  1.011E-4 8.48396 4168 350.00
340.44 0.006309 3.479846E-3 0.678613  1.011E-4 8.48430 4499 350.00
340.42 0.005623 3.560072E-3 0.678608  1.011E-4 8.48493 4869 350.00
340.40 0.005012 4.045267E-3 0.678315  1.011E-4 8.48577 5282 350.00
340.40 0.004467 4.769705E-3 0.678456  1.011E-4 8.48726 5743 350.00
340.42 0.003981 4.744107E-3 0.678507  1.011E-4 8.48882 6260 350.00
340.46 0.003548 5.137623E-3 0.678356  1.011E-4 8.48864 6837 350.00
340.50 0.003162 5.572245E-3 0.678464  1.011E-4 8.48993 7484 350.00
340.50 0.002818 5.310704E-3 0.679327  1.011E-4 8.49095 8207 350.00
340.53 0.002512 6.509217E-3 0.678377  1.011E-4 8.49138 9018 350.00
340.49 0.002239 6.936794E-3 0.678158  1.012E-4 8.49165 9925 350.00
340.48 0.001995 7.511417E-3 0.678598  1.012E-4 8.49182 10942 350.00
340.48 0.001778 8.465319E-3 0.677921  1.013E-4 8.49207 12081 350.00
340.48 0.001585 9.072005E-3 0.678339  1.013E-4 8.49248 13358 350.00
340.48 0.001413 9.745160E-3 0.677221  1.014E-4 8.49291 14788 350.05
340.47 0.001259 9.065683E-3 0.676588  1.014E-4 8.49294 16392 350.05
340.51 0.001122 1.264588E-2 0.676413  1.015E-4 8.49290 18190 350.00
340.52 0.001000 1.302675E-2 0.676153  1.015E-4 8.49283 20204 350.00
