Nb
as received
Sample dimentions in mm: 0.7000 x 0.000 x 14.18
Photocell sensitivity 0.056 V/mm, Optic arm 328 mm
User: Iva
F 4 10.000 0.001 360 0 20 20 3.0E-1
21.11.2013, 03:56

T[K]   F[Hz]  Theta[rad]   Modulus  MaxStrain Center[mm] Time[s] TOven[K]
349.53 10.000000 3.231897E-2 0.650980  1.040E-4 8.49300 30 360.00
349.53 8.912656 2.887752E-2 0.656862  1.033E-4 8.49183 64 360.00
349.54 7.944074 2.581410E-2 0.661519  1.030E-4 8.49276 98 360.00
349.54 7.080147 2.307564E-2 0.665213  1.025E-4 8.49385 132 360.00
349.56 6.309944 2.062724E-2 0.668139  1.024E-4 8.49224 166 360.00
349.56 5.624297 1.843511E-2 0.670455  1.021E-4 8.48861 200 360.00
349.56 5.012029 1.647682E-2 0.672295  1.017E-4 8.49166 234 360.00
349.57 4.467477 1.481365E-2 0.673734  1.017E-4 8.49486 268 360.00
349.56 3.981526 1.322448E-2 0.674914  1.015E-4 8.49149 302 360.00
349.56 3.548616 1.184099E-2 0.675807  1.015E-4 8.49231 336 360.00
349.57 3.162555 1.063794E-2 0.676558  1.013E-4 8.49551 370 360.00
349.57 2.818489 9.518620E-3 0.677129  1.014E-4 8.48436 405 360.00
349.52 2.512058 8.545065E-3 0.677576  1.014E-4 8.48670 439 360.00
349.58 2.238739 7.724022E-3 0.677952  1.013E-4 8.49753 473 360.00
349.55 1.994613 6.956239E-3 0.678232  1.014E-4 8.48834 507 360.00
349.52 1.779451 6.327120E-3 0.678372  1.012E-4 8.49058 541 360.00
349.51 1.585329 5.563072E-3 0.678638  1.012E-4 8.48321 575 360.00
349.57 1.412851 4.383595E-3 0.677477  1.012E-4 8.48090 610 360.00
349.55 1.261057 4.631945E-3 0.678834  1.011E-4 8.50127 645 360.00
349.58 1.121970 4.154778E-3 0.678907  1.012E-4 8.48061 679 360.00
349.58 1.000576 3.792991E-3 0.679026  1.012E-4 8.49153 714 360.00
349.58 0.892327 3.374525E-3 0.679018  1.014E-4 8.48145 748 360.00
349.59 0.794729 3.205027E-3 0.679225  1.013E-4 8.48485 782 360.00
349.59 0.706425 3.071685E-3 0.676274  1.012E-4 8.48596 817 360.00
349.59 0.630528 2.556534E-3 0.679117  1.013E-4 8.50644 852 360.00
349.59 0.563055 2.290872E-3 0.679107  1.012E-4 8.51970 887 360.00
349.59 0.501934 2.226146E-3 0.679135  1.011E-4 8.49133 923 360.00
349.60 0.446163 2.114117E-3 0.679062  1.012E-4 8.49770 957 360.00
349.60 0.398402 2.053958E-3 0.679132  1.013E-4 8.48925 991 360.00
349.55 0.354856 1.732219E-3 0.679000  1.012E-4 8.49927 1028 360.00
349.60 0.316572 1.794298E-3 0.679072  1.012E-4 8.43888 1064 360.00
349.57 0.281527 1.696978E-3 0.679003  1.012E-4 8.44846 1100 360.00
349.61 0.250967 1.522953E-3 0.679115  1.011E-4 8.49270 1138 360.00
349.58 0.223736 1.492745E-3 0.679075  1.012E-4 8.46850 1174 360.00
349.61 0.199722 1.501696E-3 0.679037  1.012E-4 8.49095 1208 360.00
349.62 0.177841 1.414219E-3 0.679228  1.011E-4 8.45833 1244 360.00
349.61 0.158615 1.463075E-3 0.679037  1.012E-4 8.55018 1284 360.00
349.60 0.141285 1.468319E-3 0.677567  1.013E-4 8.56403 1319 360.00
349.59 0.125898 1.269337E-3 0.678987  1.011E-4 8.49279 1357 360.00
349.58 0.112197 1.618752E-3 0.678724  1.013E-4 8.35841 1398 360.00
349.57 0.099992 1.346506E-3 0.678933  1.012E-4 8.49002 1431 360.00
349.56 0.089128 1.439246E-3 0.678894  1.014E-4 8.49209 1468 360.00
349.56 0.079473 1.486580E-3 0.679065  1.012E-4 8.49194 1507 360.00
349.55 0.070774 1.491829E-3 0.679028  1.013E-4 8.49049 1549 360.00
349.53 0.063105 1.507956E-3 0.679208  1.012E-4 8.49157 1595 360.00
349.53 0.056223 1.662492E-3 0.678878  1.013E-4 8.49004 1645 360.00
349.52 0.050127 1.868290E-3 0.678767  1.013E-4 8.48939 1699 360.00
349.51 0.044669 2.035212E-3 0.678798  1.013E-4 8.48868 1757 360.00
349.49 0.039819 2.025855E-3 0.678896  1.012E-4 8.48817 1822 360.00
349.48 0.035486 2.342372E-3 0.678782  1.014E-4 8.48703 1892 360.00
349.48 0.031618 2.482847E-3 0.678800  1.013E-4 8.48677 1969 360.00
349.48 0.028184 2.429192E-3 0.678691  1.012E-4 8.48688 2055 359.95
349.46 0.025121 2.708727E-3 0.678505  1.014E-4 8.48629 2148 360.00
349.45 0.022387 2.892431E-3 0.678517  1.013E-4 8.48704 2252 359.90
349.45 0.019951 3.096700E-3 0.678466  1.013E-4 8.48722 2366 359.95
349.46 0.017784 3.340838E-3 0.678231  1.013E-4 8.48779 2492 360.00
349.46 0.015848 3.467468E-3 0.678232  1.013E-4 8.48776 2633 360.00
349.49 0.014126 3.696073E-3 0.678234  1.013E-4 8.48839 2788 360.00
349.52 0.012590 4.111073E-3 0.678092  1.013E-4 8.48871 2961 360.00
349.54 0.011220 5.994734E-3 0.678617  1.013E-4 8.48955 3153 360.00
349.57 0.010001 4.315512E-3 0.677862  1.014E-4 8.49029 3367 360.00
349.60 0.008913 4.957531E-3 0.677822  1.014E-4 8.48950 3606 360.00
349.63 0.007943 5.735902E-3 0.677670  1.014E-4 8.49055 3872 360.00
349.64 0.007079 6.002906E-3 0.677447  1.015E-4 8.49056 4168 360.00
349.67 0.006309 6.394171E-3 0.677304  1.015E-4 8.49068 4499 360.00
349.70 0.005623 6.987669E-3 0.677091  1.015E-4 8.49049 4869 360.00
349.73 0.005012 7.774188E-3 0.674865  1.015E-4 8.49110 5282 360.00
349.76 0.004467 8.261574E-3 0.676537  1.016E-4 8.49084 5744 360.00
349.80 0.003981 9.122647E-3 0.676246  1.016E-4 8.49076 6260 360.00
349.80 0.003548 9.745579E-3 0.675934  1.017E-4 8.49104 6838 360.00
349.83 0.003162 1.082842E-2 0.675137  1.018E-4 8.49161 7484 360.00
349.84 0.002818 1.154840E-2 0.675065  1.018E-4 8.49171 8208 360.00
349.84 0.002512 1.249618E-2 0.674515  1.019E-4 8.49105 9018 360.00
349.84 0.002239 1.303807E-2 0.673879  1.020E-4 8.49119 9925 360.00
349.84 0.001995 1.402880E-2 0.673295  1.021E-4 8.49166 10942 360.00
349.85 0.001778 1.510422E-2 0.672622  1.022E-4 8.49156 12081 360.00
349.87 0.001585 1.587670E-2 0.671584  1.024E-4 8.49162 13358 360.00
349.88 0.001413 1.530760E-2 0.670467  1.025E-4 8.49183 14788 360.00
349.90 0.001259 1.741233E-2 0.669727  1.027E-4 8.49144 16392 360.00
349.89 0.001122 1.798234E-2 0.669088  1.028E-4 8.49168 18189 360.00
349.87 0.001000 1.853510E-2 0.667605  1.030E-4 8.49224 20204 360.00
