Nb
as received
Sample dimentions in mm: 0.7000 x 0.000 x 14.18
Photocell sensitivity 0.056 V/mm, Optic arm 328 mm
User: Iva
F 22 10.000 0.001 450 0 20 20 3.0E-1
24.11.2013, 01:14

T[K]   F[Hz]  Theta[rad]   Modulus  MaxStrain Center[mm] Time[s] TOven[K]
436.21 10.000000 3.607749E-2 0.636925  1.053E-4 8.27467 30 450.00
436.21 8.912656 3.318090E-2 0.642744  1.048E-4 8.27297 64 450.00
436.22 7.944074 3.074485E-2 0.647291  1.041E-4 8.27352 98 450.00
436.22 7.080147 2.868953E-2 0.650825  1.038E-4 8.27562 132 450.00
436.22 6.309944 2.699689E-2 0.653562  1.036E-4 8.27340 166 450.00
436.21 5.624297 2.553370E-2 0.655611  1.032E-4 8.27127 200 449.95
436.21 5.012029 2.438194E-2 0.657168  1.031E-4 8.27257 234 450.00
436.21 4.467477 2.347059E-2 0.658257  1.030E-4 8.27753 268 450.00
436.20 3.981526 2.271249E-2 0.659020  1.031E-4 8.27326 301 450.00
436.20 3.548616 2.215656E-2 0.659475  1.029E-4 8.27378 335 450.00
436.20 3.162555 2.175116E-2 0.659640  1.029E-4 8.27690 369 450.00
436.19 2.818489 2.154824E-2 0.659583  1.030E-4 8.26756 403 450.00
436.20 2.512058 2.133723E-2 0.659388  1.031E-4 8.26947 438 450.00
436.20 2.238739 2.124604E-2 0.658967  1.032E-4 8.27953 472 450.00
436.21 1.994613 2.124237E-2 0.658460  1.033E-4 8.27104 506 450.00
436.21 1.779451 2.115405E-2 0.657782  1.033E-4 8.27113 540 450.00
436.21 1.585329 2.118207E-2 0.657061  1.034E-4 8.26389 574 450.00
436.21 1.412851 2.148769E-2 0.651075  1.037E-4 8.26319 608 450.00
436.21 1.261057 2.098858E-2 0.655215  1.040E-4 8.28431 643 450.00
436.21 1.121970 2.089645E-2 0.654321  1.039E-4 8.26401 677 450.00
436.20 1.000576 2.067751E-2 0.653355  1.041E-4 8.27499 712 450.00
436.19 0.892327 2.047162E-2 0.652307  1.043E-4 8.26454 746 450.00
436.17 0.794729 2.003459E-2 0.651380  1.044E-4 8.26782 780 450.00
436.16 0.706425 1.957911E-2 0.644826  1.047E-4 8.26655 815 450.00
436.15 0.630528 1.928108E-2 0.649216  1.047E-4 8.29017 849 450.00
436.15 0.563055 1.885904E-2 0.648061  1.050E-4 8.30236 885 450.00
436.14 0.501934 1.819810E-2 0.647365  1.053E-4 8.27511 921 450.00
436.13 0.446163 1.766451E-2 0.646334  1.053E-4 8.28109 955 450.00
436.12 0.398402 1.694296E-2 0.645605  1.054E-4 8.27310 989 449.95
436.12 0.354856 1.631905E-2 0.644614  1.056E-4 8.28267 1025 450.00
436.12 0.316572 1.557042E-2 0.643752  1.057E-4 8.21826 1061 449.95
436.12 0.281527 1.490693E-2 0.643111  1.058E-4 8.22832 1097 450.00
436.13 0.250967 1.432161E-2 0.642680  1.059E-4 8.27359 1135 450.00
436.15 0.223736 1.327842E-2 0.641872  1.061E-4 8.25060 1171 450.00
436.14 0.199722 1.253289E-2 0.641304  1.061E-4 8.27418 1205 450.00
436.14 0.177841 1.196308E-2 0.641039  1.062E-4 8.23817 1241 450.00
436.14 0.158615 1.118292E-2 0.640298  1.063E-4 8.33658 1280 450.00
436.15 0.141285 1.066896E-2 0.638414  1.063E-4 8.35218 1315 450.00
436.15 0.125898 9.593583E-3 0.639550  1.064E-4 8.27578 1353 450.00
436.15 0.112197 9.368918E-3 0.639275  1.065E-4 8.13559 1394 450.00
436.15 0.099992 8.885861E-3 0.638890  1.065E-4 8.27385 1428 450.00
436.15 0.089128 8.308044E-3 0.638521  1.066E-4 8.27324 1464 450.00
436.14 0.079473 7.770850E-3 0.638332  1.066E-4 8.27391 1503 450.00
436.13 0.070774 7.335588E-3 0.638157  1.066E-4 8.27317 1545 450.00
436.14 0.063105 6.689243E-3 0.637774  1.067E-4 8.27433 1591 450.00
436.14 0.056223 6.265511E-3 0.637524  1.068E-4 8.27352 1640 450.00
436.15 0.050127 6.106444E-3 0.637520  1.068E-4 8.27407 1694 450.00
436.15 0.044669 5.837671E-3 0.637259  1.068E-4 8.27292 1753 450.00
436.14 0.039819 5.497694E-3 0.637162  1.069E-4 8.27376 1817 450.00
436.11 0.035486 4.967187E-3 0.636988  1.069E-4 8.27377 1887 450.00
436.14 0.031618 5.042049E-3 0.636805  1.068E-4 8.27405 1965 450.00
436.14 0.028184 4.538851E-3 0.636796  1.069E-4 8.27382 2050 450.00
436.14 0.025121 4.212218E-3 0.636559  1.069E-4 8.27344 2143 450.00
436.14 0.022387 4.189501E-3 0.636374  1.069E-4 8.27446 2246 450.00
436.13 0.019951 3.708079E-3 0.636439  1.069E-4 8.27440 2361 450.00
436.12 0.017784 3.814077E-3 0.636254  1.070E-4 8.27382 2487 450.00
436.12 0.015848 3.642418E-3 0.636288  1.070E-4 8.27384 2627 450.00
436.11 0.014126 3.224212E-3 0.635853  1.070E-4 8.27401 2783 450.00
436.10 0.012590 3.191083E-3 0.635901  1.070E-4 8.27367 2956 450.00
436.10 0.011220 4.715291E-3 0.635146  1.070E-4 8.27373 3148 450.00
436.09 0.010001 3.224741E-3 0.635809  1.070E-4 8.27416 3362 450.00
436.09 0.008913 2.939833E-3 0.635693  1.071E-4 8.27402 3600 450.00
436.12 0.007943 2.874385E-3 0.635562  1.071E-4 8.27347 3866 450.00
436.15 0.007079 2.738121E-3 0.635566  1.071E-4 8.27371 4162 450.05
436.10 0.006309 2.728936E-3 0.635509  1.071E-4 8.27431 4493 450.00
436.12 0.005623 2.494133E-3 0.635426  1.071E-4 8.27430 4863 450.00
436.12 0.005012 2.162953E-3 0.635694  1.071E-4 8.27428 5276 450.00
436.11 0.004467 2.416181E-3 0.635273  1.071E-4 8.27451 5737 450.00
436.11 0.003981 2.552068E-3 0.635188  1.071E-4 8.27454 6253 450.00
436.11 0.003548 2.610084E-3 0.635064  1.071E-4 8.27433 6831 450.00
436.10 0.003162 2.451039E-3 0.634857  1.071E-4 8.27460 7477 450.00
436.15 0.002818 2.241097E-3 0.635075  1.071E-4 8.27451 8201 450.00
436.12 0.002512 2.240423E-3 0.635018  1.071E-4 8.27458 9011 450.00
436.13 0.002239 2.442414E-3 0.634953  1.072E-4 8.27460 9918 450.00
436.16 0.001995 1.876130E-3 0.633866  1.072E-4 8.27469 10935 450.00
436.16 0.001778 1.669495E-3 0.634813  1.072E-4 8.27440 12074 450.00
436.16 0.001585 2.000278E-3 0.634284  1.072E-4 8.27493 13350 450.00
436.18 0.001413 2.387573E-3 0.634551  1.072E-4 8.27491 14780 450.00
436.22 0.001259 1.963525E-3 0.635015  1.072E-4 8.27510 16384 450.00
436.22 0.001122 1.949828E-3 0.634808  1.072E-4 8.27501 18182 450.00
436.24 0.001000 3.554935E-3 0.634374  1.072E-4 8.27489 20196 450.00
