Nb
as received
Sample dimentions in mm: 0.7000 x 0.000 x 14.18
Photocell sensitivity 0.056 V/mm, Optic arm 328 mm
User: Iva
F 10 10.000 0.001 390 0 20 20 3.0E-1
22.11.2013, 03:02

T[K]   F[Hz]  Theta[rad]   Modulus  MaxStrain Center[mm] Time[s] TOven[K]
377.15 10.000000 3.222976E-2 0.647702  1.044E-4 8.46904 30 390.00
377.15 8.912656 2.880412E-2 0.653648  1.039E-4 8.47012 64 390.00
377.16 7.944074 2.576671E-2 0.658337  1.032E-4 8.46737 98 390.00
377.17 7.080147 2.307756E-2 0.662045  1.030E-4 8.47061 132 390.00
377.16 6.309944 2.064983E-2 0.664994  1.026E-4 8.46867 166 390.00
377.16 5.624297 1.853794E-2 0.667319  1.024E-4 8.46462 200 390.00
377.16 5.012029 1.660029E-2 0.669163  1.022E-4 8.46910 234 390.00
377.10 4.467477 1.493653E-2 0.670642  1.021E-4 8.47122 268 390.00
377.10 3.981526 1.336085E-2 0.671798  1.019E-4 8.46906 302 390.00
377.17 3.548616 1.202108E-2 0.672717  1.019E-4 8.46981 336 390.00
377.14 3.162555 1.080587E-2 0.673469  1.020E-4 8.47134 370 390.00
377.11 2.818489 9.719436E-3 0.674005  1.019E-4 8.46139 405 390.00
377.14 2.512058 8.798337E-3 0.674449  1.018E-4 8.46417 439 390.00
377.17 2.238739 7.940453E-3 0.674837  1.016E-4 8.47365 473 390.00
377.18 1.994613 7.249631E-3 0.675165  1.017E-4 8.46416 507 390.00
377.15 1.779451 6.520567E-3 0.675218  1.018E-4 8.46701 541 390.00
377.19 1.585329 5.874247E-3 0.675486  1.016E-4 8.45937 575 390.00
377.19 1.412851 5.285808E-3 0.674588  1.015E-4 8.45817 610 390.00
377.12 1.261057 5.029433E-3 0.675578  1.016E-4 8.47687 645 390.00
377.18 1.121970 4.765140E-3 0.675775  1.017E-4 8.45580 679 390.00
377.19 1.000576 4.436557E-3 0.675895  1.016E-4 8.46826 714 390.00
377.18 0.892327 3.816977E-3 0.675837  1.015E-4 8.45704 748 390.00
377.18 0.794729 3.880695E-3 0.675919  1.016E-4 8.46139 782 390.00
377.18 0.706425 3.410434E-3 0.675622  1.016E-4 8.46205 817 390.00
377.19 0.630528 3.441653E-3 0.675955  1.015E-4 8.48272 852 390.00
377.19 0.563055 3.107765E-3 0.675772  1.016E-4 8.49558 887 390.00
377.16 0.501934 3.297864E-3 0.676019  1.015E-4 8.46822 923 390.00
377.19 0.446163 3.422171E-3 0.675693  1.013E-4 8.47218 957 390.00
377.19 0.398402 3.379540E-3 0.675809  1.018E-4 8.46635 991 390.00
377.20 0.354856 3.292070E-3 0.675708  1.015E-4 8.47614 1028 390.00
377.17 0.316572 3.190164E-3 0.675700  1.015E-4 8.41341 1064 390.00
377.19 0.281527 3.492444E-3 0.675585  1.017E-4 8.42571 1100 390.00
377.19 0.250967 3.576418E-3 0.675687  1.017E-4 8.46985 1138 390.00
377.19 0.223736 3.651954E-3 0.675589  1.018E-4 8.44296 1174 390.00
377.19 0.199722 3.869943E-3 0.675432  1.017E-4 8.46663 1208 390.00
377.17 0.177841 3.853952E-3 0.675540  1.017E-4 8.43411 1244 390.00
377.17 0.158615 4.465530E-3 0.675426  1.017E-4 8.52732 1284 390.00
377.20 0.141285 5.152229E-3 0.673781  1.018E-4 8.53962 1319 390.00
377.19 0.125898 5.307287E-3 0.675158  1.021E-4 8.47872 1357 390.00
377.20 0.112197 5.281657E-3 0.674613  1.018E-4 8.33253 1398 390.00
377.17 0.099992 5.472548E-3 0.674684  1.018E-4 8.46532 1431 390.00
377.21 0.089128 6.195371E-3 0.674798  1.018E-4 8.46655 1468 390.00
377.20 0.079473 6.855680E-3 0.674523  1.021E-4 8.46806 1507 390.00
377.18 0.070774 7.316905E-3 0.674778  1.018E-4 8.46685 1549 390.00
377.23 0.063105 7.650780E-3 0.674234  1.018E-4 8.46679 1595 390.00
377.18 0.056223 8.626496E-3 0.674078  1.018E-4 8.46581 1644 390.00
377.21 0.050127 9.364253E-3 0.673902  1.021E-4 8.46459 1698 390.00
377.22 0.044669 1.031122E-2 0.673700  1.021E-4 8.46355 1757 390.00
377.21 0.039819 1.161455E-2 0.673237  1.021E-4 8.46293 1822 390.00
377.22 0.035486 1.276940E-2 0.672675  1.022E-4 8.46231 1892 390.00
377.21 0.031618 1.391097E-2 0.671799  1.022E-4 8.46280 1969 390.00
377.21 0.028184 1.464686E-2 0.671040  1.023E-4 8.46260 2054 390.00
377.21 0.025121 1.537257E-2 0.669962  1.025E-4 8.46290 2148 390.00
377.22 0.022387 1.630160E-2 0.669060  1.026E-4 8.46368 2251 390.00
377.23 0.019951 1.668483E-2 0.668103  1.027E-4 8.46376 2366 390.00
377.24 0.017784 1.726186E-2 0.666969  1.029E-4 8.46440 2492 390.00
377.25 0.015848 1.779824E-2 0.666083  1.030E-4 8.46520 2633 390.00
377.22 0.014126 1.823127E-2 0.665405  1.032E-4 8.46558 2788 390.00
377.24 0.012590 1.825982E-2 0.663891  1.034E-4 8.46575 2961 390.00
377.23 0.011220 1.803996E-2 0.664052  1.035E-4 8.46574 3153 390.00
377.23 0.010001 1.877676E-2 0.661634  1.037E-4 8.46651 3367 390.00
377.25 0.008913 1.869501E-2 0.660552  1.039E-4 8.46607 3606 390.00
377.22 0.007943 1.880325E-2 0.659432  1.040E-4 8.46693 3872 390.00
377.26 0.007079 1.872214E-2 0.658220  1.043E-4 8.46719 4168 390.00
377.25 0.006309 1.818564E-2 0.657116  1.044E-4 8.46700 4499 390.00
377.22 0.005623 1.813491E-2 0.656198  1.046E-4 8.46732 4869 390.00
377.21 0.005012 1.712918E-2 0.655659  1.048E-4 8.46743 5282 390.00
377.16 0.004467 1.725778E-2 0.654220  1.049E-4 8.46775 5744 390.00
377.05 0.003981 1.665746E-2 0.653386  1.051E-4 8.46836 6260 390.00
377.07 0.003548 1.613595E-2 0.652417  1.053E-4 8.46848 6838 390.00
377.05 0.003162 1.577896E-2 0.651483  1.054E-4 8.46814 7484 390.00
377.13 0.002818 1.511272E-2 0.650837  1.055E-4 8.46800 8208 390.00
377.17 0.002512 1.444757E-2 0.649965  1.056E-4 8.46818 9018 390.00
377.20 0.002239 1.380537E-2 0.649325  1.057E-4 8.46877 9926 390.00
377.20 0.001995 1.358199E-2 0.648865  1.058E-4 8.46860 10942 390.00
377.15 0.001778 1.211502E-2 0.648028  1.059E-4 8.46868 12082 390.00
377.10 0.001585 1.174505E-2 0.647725  1.060E-4 8.46906 13358 390.00
377.12 0.001413 1.180065E-2 0.645514  1.061E-4 8.46967 14788 390.00
377.18 0.001259 1.089239E-2 0.646795  1.061E-4 8.47035 16392 390.00
377.23 0.001122 1.033743E-2 0.645907  1.062E-4 8.47108 18189 390.00
377.25 0.001000 9.942707E-3 0.646213  1.061E-4 8.47105 20204 390.00
