Nb
as received
Sample dimentions in mm: 0.7000 x 0.000 x 14.18
Photocell sensitivity 0.056 V/mm, Optic arm 328 mm
User: Iva
F 8 10.000 0.001 380 0 20 20 3.0E-1
21.11.2013, 19:20

T[K]   F[Hz]  Theta[rad]   Modulus  MaxStrain Center[mm] Time[s] TOven[K]
367.46 10.000000 3.196852E-2 0.648403  1.045E-4 8.49250 30 380.00
367.46 8.912656 2.860804E-2 0.654314  1.038E-4 8.49117 64 380.00
367.47 7.944074 2.558943E-2 0.658987  1.033E-4 8.49123 98 380.00
367.47 7.080147 2.288651E-2 0.662690  1.029E-4 8.49415 132 380.00
367.48 6.309944 2.043559E-2 0.665619  1.025E-4 8.49109 166 380.00
367.49 5.624297 1.829435E-2 0.667934  1.021E-4 8.48694 200 380.00
367.50 5.012029 1.637300E-2 0.669774  1.022E-4 8.48990 234 380.00
367.50 4.467477 1.464883E-2 0.671209  1.019E-4 8.49533 268 380.00
367.49 3.981526 1.310662E-2 0.672356  1.018E-4 8.49257 302 380.00
367.48 3.548616 1.172902E-2 0.673256  1.018E-4 8.49028 336 380.00
367.49 3.162555 1.054444E-2 0.673973  1.018E-4 8.49367 370 380.00
367.47 2.818489 9.436421E-3 0.674535  1.018E-4 8.48291 405 380.00
367.48 2.512058 8.488599E-3 0.674952  1.016E-4 8.48638 439 380.00
367.49 2.238739 7.635627E-3 0.675327  1.017E-4 8.49653 473 380.00
367.49 1.994613 6.914151E-3 0.675700  1.016E-4 8.48650 507 380.00
367.52 1.779451 6.263659E-3 0.675823  1.016E-4 8.48960 541 380.00
367.52 1.585329 5.589127E-3 0.676062  1.015E-4 8.48232 575 380.00
367.48 1.412851 5.175354E-3 0.677942  1.015E-4 8.48095 610 380.00
367.46 1.261057 4.585630E-3 0.676330  1.015E-4 8.49979 645 380.00
367.46 1.121970 4.259354E-3 0.676316  1.014E-4 8.47885 679 380.00
367.46 1.000576 3.827572E-3 0.676529  1.017E-4 8.49090 714 380.00
367.48 0.892327 3.523356E-3 0.676492  1.015E-4 8.48197 748 380.00
367.52 0.794729 3.377773E-3 0.676463  1.016E-4 8.48372 782 380.00
367.52 0.706425 3.098450E-3 0.678661  1.015E-4 8.48406 817 380.00
367.52 0.630528 2.785877E-3 0.676629  1.015E-4 8.50579 852 380.00
367.49 0.563055 2.810347E-3 0.676517  1.016E-4 8.51720 887 380.00
367.49 0.501934 2.391706E-3 0.676740  1.015E-4 8.48946 923 380.00
367.46 0.446163 2.412407E-3 0.676520  1.015E-4 8.49662 957 380.00
367.47 0.398402 2.482091E-3 0.676588  1.015E-4 8.48856 991 380.00
367.50 0.354856 2.356558E-3 0.676416  1.015E-4 8.49832 1028 380.00
367.48 0.316572 2.353928E-3 0.676458  1.014E-4 8.43719 1064 380.00
367.48 0.281527 2.439394E-3 0.676468  1.016E-4 8.44628 1100 380.00
367.52 0.250967 2.369980E-3 0.676506  1.015E-4 8.49047 1138 380.00
367.49 0.223736 2.351653E-3 0.676574  1.015E-4 8.46734 1174 380.00
367.50 0.199722 2.507191E-3 0.676389  1.014E-4 8.48979 1208 380.00
367.50 0.177841 2.572807E-3 0.676474  1.017E-4 8.45657 1244 380.00
367.51 0.158615 2.552450E-3 0.676350  1.016E-4 8.54937 1284 380.00
367.51 0.141285 2.753940E-3 0.677411  1.015E-4 8.56123 1319 380.00
367.57 0.125898 2.942119E-3 0.676360  1.015E-4 8.48845 1357 380.00
367.56 0.112197 3.091978E-3 0.676016  1.015E-4 8.35550 1398 380.00
367.56 0.099992 3.360113E-3 0.676158  1.016E-4 8.48822 1431 380.00
367.52 0.089128 3.230702E-3 0.676259  1.015E-4 8.48831 1468 380.00
367.54 0.079473 3.628768E-3 0.676194  1.016E-4 8.49104 1507 380.00
367.54 0.070774 3.642776E-3 0.675905  1.017E-4 8.48938 1549 380.00
367.55 0.063105 4.158160E-3 0.676050  1.017E-4 8.48984 1595 380.00
367.55 0.056223 4.318652E-3 0.675996  1.017E-4 8.48937 1645 380.00
367.54 0.050127 5.571698E-3 0.675680  1.017E-4 8.48803 1699 380.00
367.52 0.044669 5.589934E-3 0.675994  1.016E-4 8.48616 1757 380.00
367.55 0.039819 6.444491E-3 0.675981  1.017E-4 8.48485 1822 380.00
367.54 0.035486 7.160717E-3 0.675634  1.017E-4 8.48383 1892 380.00
367.55 0.031618 7.978195E-3 0.675385  1.017E-4 8.48453 1969 380.00
367.52 0.028184 8.754827E-3 0.674821  1.018E-4 8.48456 2055 380.00
367.55 0.025121 9.253381E-3 0.674578  1.018E-4 8.48507 2148 380.00
367.56 0.022387 9.563243E-3 0.673985  1.019E-4 8.48555 2252 380.00
367.55 0.019951 1.028555E-2 0.673704  1.019E-4 8.48614 2366 380.00
367.55 0.017784 1.112056E-2 0.672872  1.020E-4 8.48665 2492 380.00
367.55 0.015848 1.174778E-2 0.672478  1.020E-4 8.48697 2633 380.00
367.55 0.014126 1.247748E-2 0.671958  1.021E-4 8.48750 2788 380.00
367.55 0.012590 1.313403E-2 0.671333  1.022E-4 8.48790 2961 380.00
367.55 0.011220 1.671387E-2 0.670367  1.023E-4 8.48809 3153 380.00
367.57 0.010001 1.471983E-2 0.669902  1.024E-4 8.48849 3367 380.00
367.57 0.008913 1.530352E-2 0.669061  1.026E-4 8.48865 3606 380.00
367.57 0.007943 1.590899E-2 0.668108  1.027E-4 8.48905 3872 380.00
367.55 0.007079 1.668687E-2 0.667340  1.028E-4 8.48909 4168 380.00
367.58 0.006309 1.758591E-2 0.666278  1.030E-4 8.48909 4499 380.00
367.61 0.005623 1.785720E-2 0.665381  1.032E-4 8.48945 4869 380.00
367.58 0.005012 1.781301E-2 0.665056  1.034E-4 8.48941 5282 380.00
367.57 0.004467 1.864789E-2 0.663150  1.035E-4 8.48941 5744 380.00
367.57 0.003981 1.884786E-2 0.661925  1.037E-4 8.48975 6260 380.00
367.60 0.003548 1.891604E-2 0.660807  1.039E-4 8.49010 6838 380.00
367.58 0.003162 1.783839E-2 0.659943  1.041E-4 8.49022 7484 380.00
367.59 0.002818 1.866972E-2 0.658537  1.042E-4 8.48992 8208 380.00
367.58 0.002512 1.833176E-2 0.657524  1.044E-4 8.49006 9018 380.00
367.58 0.002239 1.800246E-2 0.656443  1.046E-4 8.49035 9925 380.00
367.60 0.001995 1.756357E-2 0.655501  1.048E-4 8.49050 10942 380.00
367.61 0.001778 1.652431E-2 0.654247  1.049E-4 8.49033 12081 380.00
367.58 0.001585 1.655255E-2 0.653501  1.051E-4 8.49062 13358 380.00
367.57 0.001413 1.608406E-2 0.652712  1.052E-4 8.49083 14788 380.00
367.59 0.001259 1.521575E-2 0.651865  1.053E-4 8.49100 16392 380.00
367.60 0.001122 1.566079E-2 0.651475  1.054E-4 8.49058 18189 380.00
367.62 0.001000 1.394474E-2 0.650206  1.055E-4 8.49044 20203 380.00
