Nb
as received
Sample dimentions in mm: 0.7000 x 0.000 x 14.18
Photocell sensitivity 0.056 V/mm, Optic arm 328 mm
User: Iva
F 6 10.000 0.001 370 0 20 20 3.0E-1
21.11.2013, 11:38

T[K]   F[Hz]  Theta[rad]   Modulus  MaxStrain Center[mm] Time[s] TOven[K]
358.58 10.000000 3.218301E-2 0.650010  1.041E-4 8.49216 30 370.00
358.59 8.912656 2.876914E-2 0.655920  1.036E-4 8.49194 64 370.00
358.59 7.944074 2.572073E-2 0.660592  1.031E-4 8.49181 98 370.00
358.59 7.080147 2.298870E-2 0.664278  1.029E-4 8.49362 132 370.00
358.59 6.309944 2.056222E-2 0.667196  1.024E-4 8.49212 166 370.00
358.58 5.624297 1.840931E-2 0.669513  1.023E-4 8.48779 200 370.00
358.61 5.012029 1.645953E-2 0.671366  1.020E-4 8.49059 234 370.00
358.63 4.467477 1.474158E-2 0.672782  1.018E-4 8.49422 268 370.00
358.62 3.981526 1.320288E-2 0.673945  1.015E-4 8.49114 302 370.00
358.62 3.548616 1.182936E-2 0.674859  1.016E-4 8.49038 336 370.00
358.65 3.162555 1.057877E-2 0.675590  1.016E-4 8.49437 370 370.00
358.63 2.818489 9.538500E-3 0.676156  1.016E-4 8.48413 405 370.00
358.62 2.512058 8.561244E-3 0.676660  1.016E-4 8.48650 439 370.00
358.63 2.238739 7.675455E-3 0.677005  1.014E-4 8.49669 473 370.00
358.63 1.994613 6.969467E-3 0.677362  1.015E-4 8.48793 507 370.00
358.59 1.779451 6.167937E-3 0.677449  1.014E-4 8.48904 541 370.00
358.62 1.585329 5.642509E-3 0.677705  1.013E-4 8.48155 575 370.00
358.63 1.412851 5.167751E-3 0.678370  1.013E-4 8.48117 610 370.00
358.59 1.261057 4.622508E-3 0.677853  1.012E-4 8.50124 645 370.00
358.62 1.121970 4.187373E-3 0.677981  1.014E-4 8.47984 679 370.00
358.61 1.000576 3.780896E-3 0.678201  1.014E-4 8.49071 714 370.00
358.65 0.892327 3.464245E-3 0.678118  1.013E-4 8.47996 748 370.00
358.65 0.794729 3.273705E-3 0.678209  1.014E-4 8.48546 782 370.00
358.66 0.706425 2.780604E-3 0.678869  1.014E-4 8.48453 817 370.00
358.66 0.630528 2.692788E-3 0.678210  1.014E-4 8.50592 852 370.00
358.65 0.563055 2.291818E-3 0.678297  1.015E-4 8.51788 887 370.00
358.66 0.501934 2.402172E-3 0.678381  1.015E-4 8.49125 923 370.00
358.65 0.446163 2.045788E-3 0.678212  1.013E-4 8.49681 957 370.00
358.65 0.398402 2.010621E-3 0.678335  1.013E-4 8.48780 991 370.00
358.64 0.354856 1.819396E-3 0.678103  1.013E-4 8.49853 1028 369.95
358.64 0.316572 1.807887E-3 0.678252  1.014E-4 8.43762 1064 370.00
358.65 0.281527 1.800512E-3 0.678156  1.013E-4 8.44717 1100 370.00
358.64 0.250967 1.792488E-3 0.678175  1.014E-4 8.49055 1138 370.00
358.65 0.223736 1.855467E-3 0.678233  1.014E-4 8.46727 1174 370.00
358.66 0.199722 1.677586E-3 0.678342  1.016E-4 8.49007 1208 370.00
358.66 0.177841 1.993129E-3 0.678176  1.014E-4 8.45720 1244 370.00
358.66 0.158615 1.867008E-3 0.678190  1.017E-4 8.55012 1284 370.00
358.67 0.141285 1.952170E-3 0.678523  1.014E-4 8.56070 1319 370.00
358.67 0.125898 2.030615E-3 0.678299  1.014E-4 8.48891 1357 370.00
358.66 0.112197 1.865910E-3 0.677982  1.013E-4 8.35563 1398 370.00
358.67 0.099992 2.114053E-3 0.678312  1.013E-4 8.48747 1431 370.00
358.67 0.089128 2.293241E-3 0.678134  1.015E-4 8.48780 1468 370.00
358.67 0.079473 2.189036E-3 0.678015  1.013E-4 8.49054 1507 370.00
358.67 0.070774 2.342850E-3 0.678188  1.014E-4 8.48912 1549 370.00
358.67 0.063105 2.672154E-3 0.677983  1.014E-4 8.48920 1595 370.00
358.67 0.056223 2.833655E-3 0.678075  1.014E-4 8.48739 1645 370.00
358.69 0.050127 2.663751E-3 0.678049  1.015E-4 8.48735 1699 370.00
358.69 0.044669 3.070582E-3 0.678053  1.015E-4 8.48576 1757 370.00
358.73 0.039819 3.684698E-3 0.678152  1.014E-4 8.48385 1822 370.00
358.72 0.035486 3.724757E-3 0.677760  1.015E-4 8.48294 1892 370.00
358.69 0.031618 4.315133E-3 0.677835  1.015E-4 8.48384 1970 370.00
358.70 0.028184 4.657358E-3 0.677618  1.015E-4 8.48396 2055 370.00
358.70 0.025121 5.108230E-3 0.677355  1.015E-4 8.48346 2148 370.00
358.70 0.022387 5.570513E-3 0.677138  1.016E-4 8.48436 2252 370.00
358.68 0.019951 6.073365E-3 0.677045  1.015E-4 8.48573 2366 370.00
358.66 0.017784 5.928890E-3 0.676784  1.016E-4 8.48474 2492 370.00
358.67 0.015848 6.526883E-3 0.676640  1.016E-4 8.48604 2633 370.00
358.67 0.014126 7.103349E-3 0.676320  1.016E-4 8.48630 2788 370.00
358.69 0.012590 7.796108E-3 0.675950  1.016E-4 8.48705 2961 370.00
358.70 0.011220 6.062023E-3 0.674647  1.017E-4 8.48793 3154 370.00
358.70 0.010001 8.747640E-3 0.675338  1.018E-4 8.48802 3368 370.00
358.72 0.008913 9.365756E-3 0.674956  1.018E-4 8.48851 3606 370.00
358.73 0.007943 1.015947E-2 0.674331  1.019E-4 8.48844 3872 370.00
358.74 0.007079 1.105141E-2 0.674148  1.019E-4 8.48869 4168 370.00
358.72 0.006309 1.180864E-2 0.673574  1.020E-4 8.48829 4499 370.00
358.72 0.005623 1.261158E-2 0.672763  1.021E-4 8.48875 4869 370.00
358.74 0.005012 1.350229E-2 0.672352  1.022E-4 8.48887 5282 370.00
358.76 0.004467 1.425772E-2 0.671519  1.024E-4 8.48863 5744 370.00
358.73 0.003981 1.527826E-2 0.670913  1.025E-4 8.48852 6260 370.00
358.77 0.003548 1.603903E-2 0.669784  1.026E-4 8.48851 6838 370.00
358.75 0.003162 1.792570E-2 0.668084  1.027E-4 8.48885 7484 370.00
358.78 0.002818 1.752618E-2 0.667802  1.029E-4 8.48877 8208 370.00
358.79 0.002512 1.804549E-2 0.666532  1.031E-4 8.48867 9018 370.00
358.78 0.002239 1.859236E-2 0.665356  1.033E-4 8.48931 9925 370.00
358.77 0.001995 1.881900E-2 0.664216  1.035E-4 8.49028 10942 370.00
358.78 0.001778 1.930870E-2 0.663012  1.036E-4 8.49036 12081 370.00
358.80 0.001585 1.891084E-2 0.661732  1.038E-4 8.49108 13358 370.00
358.81 0.001413 1.931687E-2 0.660544  1.040E-4 8.49114 14788 370.00
358.80 0.001259 1.909753E-2 0.659159  1.042E-4 8.49162 16392 370.00
358.80 0.001122 1.752772E-2 0.658161  1.044E-4 8.49274 18189 370.00
358.80 0.001000 1.842552E-2 0.657241  1.045E-4 8.49359 20204 370.00
