Nb
as received
Sample dimentions in mm: 0.7000 x 0.000 x 14.18
Photocell sensitivity 0.056 V/mm, Optic arm 328 mm
User: Iva
F 14 10.000 0.001 410 0 20 20 3.0E-1
22.11.2013, 18:26

T[K]   F[Hz]  Theta[rad]   Modulus  MaxStrain Center[mm] Time[s] TOven[K]
395.76 10.000000 3.261086E-2 0.644769  1.046E-4 8.41517 30 410.05
395.76 8.912656 2.925841E-2 0.650710  1.038E-4 8.41489 64 410.00
395.80 7.944074 2.624518E-2 0.655389  1.034E-4 8.41293 98 410.00
395.77 7.080147 2.355078E-2 0.659113  1.030E-4 8.41521 132 410.00
395.78 6.309944 2.115144E-2 0.662071  1.026E-4 8.41613 166 410.00
395.78 5.624297 1.907229E-2 0.664384  1.025E-4 8.41113 200 410.00
395.78 5.012029 1.714849E-2 0.666245  1.023E-4 8.41599 234 410.00
395.84 4.467477 1.550830E-2 0.667705  1.020E-4 8.41372 268 410.00
395.80 3.981526 1.404146E-2 0.668844  1.020E-4 8.41769 302 410.00
395.81 3.548616 1.273243E-2 0.669762  1.020E-4 8.41481 336 410.00
395.78 3.162555 1.161051E-2 0.670460  1.019E-4 8.41497 370 410.00
395.79 2.818489 1.069352E-2 0.671026  1.019E-4 8.40767 404 410.00
395.79 2.512058 9.780372E-3 0.671479  1.018E-4 8.41187 439 410.00
395.78 2.238739 9.094801E-3 0.671819  1.017E-4 8.41722 473 410.00
395.79 1.994613 8.389362E-3 0.672134  1.017E-4 8.40942 507 410.00
395.79 1.779451 7.882224E-3 0.672246  1.016E-4 8.41613 541 410.00
395.79 1.585329 7.439659E-3 0.672411  1.018E-4 8.40733 575 410.00
395.80 1.412851 6.801242E-3 0.670298  1.016E-4 8.40544 610 410.00
395.80 1.261057 6.654740E-3 0.672513  1.017E-4 8.42216 644 410.00
395.80 1.121970 6.653620E-3 0.672532  1.016E-4 8.39927 679 410.00
395.79 1.000576 6.486051E-3 0.672610  1.017E-4 8.41402 714 410.05
395.79 0.892327 6.252096E-3 0.672585  1.017E-4 8.40212 748 410.10
395.78 0.794729 6.555760E-3 0.672587  1.018E-4 8.40497 782 410.10
395.78 0.706425 7.026241E-3 0.670694  1.018E-4 8.40852 817 410.10
395.79 0.630528 6.313602E-3 0.672418  1.018E-4 8.42520 852 410.10
395.76 0.563055 6.593490E-3 0.672183  1.017E-4 8.44126 887 410.00
395.74 0.501934 6.896569E-3 0.672225  1.018E-4 8.41385 923 410.00
395.71 0.446163 7.242046E-3 0.672104  1.018E-4 8.42009 957 410.00
395.71 0.398402 7.687803E-3 0.671796  1.020E-4 8.41109 991 410.00
395.71 0.354856 7.853904E-3 0.671534  1.018E-4 8.42044 1028 409.95
395.69 0.316572 8.404792E-3 0.671473  1.020E-4 8.35733 1064 410.00
395.69 0.281527 8.759236E-3 0.671178  1.019E-4 8.37268 1099 409.95
395.70 0.250967 9.436902E-3 0.670925  1.020E-4 8.41271 1138 409.95
395.68 0.223736 1.016257E-2 0.670520  1.021E-4 8.38572 1174 409.90
395.67 0.199722 1.067763E-2 0.670108  1.021E-4 8.41251 1208 409.90
395.67 0.177841 1.165914E-2 0.669821  1.022E-4 8.38472 1244 409.90
395.67 0.158615 1.241655E-2 0.669232  1.023E-4 8.47171 1283 409.90
395.67 0.141285 1.352008E-2 0.667995  1.024E-4 8.48627 1319 409.90
395.68 0.125898 1.408376E-2 0.668041  1.024E-4 8.42010 1357 409.90
395.69 0.112197 1.469668E-2 0.667042  1.025E-4 8.27859 1397 409.95
395.69 0.099992 1.529552E-2 0.666232  1.027E-4 8.41218 1431 409.90
395.69 0.089128 1.573971E-2 0.665470  1.027E-4 8.41356 1467 409.95
395.69 0.079473 1.655875E-2 0.664616  1.030E-4 8.41376 1507 410.00
395.70 0.070774 1.721953E-2 0.663673  1.031E-4 8.41247 1549 410.00
395.71 0.063105 1.785085E-2 0.662490  1.033E-4 8.41361 1595 410.00
395.73 0.056223 1.824108E-2 0.661515  1.035E-4 8.41296 1644 410.00
395.75 0.050127 1.849693E-2 0.660427  1.036E-4 8.41114 1698 410.00
395.76 0.044669 1.901354E-2 0.659376  1.038E-4 8.41113 1757 410.00
395.77 0.039819 1.899614E-2 0.658084  1.040E-4 8.41043 1821 410.00
395.79 0.035486 1.914970E-2 0.656978  1.042E-4 8.41113 1892 410.00
395.81 0.031618 1.900307E-2 0.655711  1.043E-4 8.41078 1969 410.00
395.82 0.028184 1.886162E-2 0.654553  1.045E-4 8.41187 2054 410.00
395.85 0.025121 1.836725E-2 0.653409  1.046E-4 8.41178 2148 410.00
395.84 0.022387 1.801751E-2 0.652215  1.049E-4 8.41152 2251 410.00
395.87 0.019951 1.728448E-2 0.651294  1.050E-4 8.41216 2365 410.00
395.87 0.017784 1.646429E-2 0.650332  1.051E-4 8.41198 2492 410.00
395.91 0.015848 1.586035E-2 0.649299  1.053E-4 8.41246 2632 410.00
395.90 0.014126 1.518070E-2 0.648249  1.055E-4 8.41241 2788 410.00
395.93 0.012590 1.460819E-2 0.647981  1.055E-4 8.41260 2961 410.00
395.97 0.011220 1.208145E-2 0.648438  1.057E-4 8.41275 3153 410.00
395.99 0.010001 1.319221E-2 0.646572  1.057E-4 8.41244 3367 410.00
396.01 0.008913 1.251955E-2 0.645955  1.058E-4 8.41234 3605 410.00
396.02 0.007943 1.208978E-2 0.645368  1.060E-4 8.41322 3871 410.00
396.02 0.007079 1.114794E-2 0.644851  1.061E-4 8.41300 4168 410.00
396.03 0.006309 1.038615E-2 0.644429  1.061E-4 8.41263 4499 410.00
396.00 0.005623 1.014657E-2 0.644139  1.062E-4 8.41281 4869 410.00
395.95 0.005012 8.984134E-3 0.643124  1.063E-4 8.41281 5282 410.00
395.88 0.004467 9.186400E-3 0.643424  1.063E-4 8.41302 5743 410.00
395.82 0.003981 8.683602E-3 0.643117  1.063E-4 8.41286 6260 410.00
395.74 0.003548 7.936624E-3 0.642711  1.064E-4 8.41292 6837 410.00
395.74 0.003162 8.259426E-3 0.642734  1.064E-4 8.41318 7484 410.00
395.74 0.002818 7.135022E-3 0.642209  1.065E-4 8.41328 8207 410.00
395.75 0.002512 6.489274E-3 0.642100  1.065E-4 8.41323 9017 410.00
395.76 0.002239 6.238674E-3 0.641854  1.065E-4 8.41324 9925 410.00
395.78 0.001995 6.032265E-3 0.642111  1.066E-4 8.41368 10942 410.00
395.81 0.001778 6.235266E-3 0.641690  1.066E-4 8.41351 12081 410.00
395.79 0.001585 5.437581E-3 0.641322  1.066E-4 8.41323 13357 410.00
395.82 0.001413 3.940368E-3 0.640072  1.066E-4 8.41339 14787 410.00
395.86 0.001259 4.741547E-3 0.640828  1.067E-4 8.41350 16391 410.00
395.88 0.001122 4.609065E-3 0.640636  1.067E-4 8.41336 18189 410.00
395.89 0.001000 4.702548E-3 0.641039  1.067E-4 8.41322 20203 410.00
